# Permeability/(cm/s): 0.07421755348448433    
# ( start_bin=6 <= i < end_bin=94 )
# bin_centers/(A)        free_energy/(kBT)      diffusion/(1e-5cm^2/s) bin_widths/(A)    resistivity/(s/cm)
       -4.3950364065        -0.0000000347         0.2233444682         0.0887886143         0.0003975411
       -4.3062477922         0.0068149429         0.2224838657         0.0887886143         0.0004018079
       -4.2174591780         0.0183183868         0.2208826305         0.0887886143         0.0004094033
       -4.1286705637         0.0309840831         0.2187576171         0.0887886143         0.0004186493
       -4.0398819494         0.0410896745         0.2163818293         0.0887886143         0.0004275447
       -3.9510933352         0.0459814805         0.2140346519         0.0887886143         0.0004343529
       -3.8623047209         0.0449610359         0.2119516639         0.0887886143         0.0004381742
       -3.7735161066         0.0394811596         0.2102802447         0.0887886143         0.0004392434
       -3.6847274923         0.0325775621         0.2090442606         0.0887886143         0.0004388007
       -3.5959388781         0.0277325649         0.2081195405         0.0887886143         0.0004386201
       -3.5071502638         0.0275791251         0.2072225331         0.0887886143         0.0004404512
       -3.4183616495         0.0329316710         0.2059170524         0.0887886143         0.0004456224
       -3.3295730352         0.0425426824         0.2036465211         0.0887886143         0.0004549423
       -3.2407844210         0.0537516182         0.1997987525         0.0887886143         0.0004689306
       -3.1519958067         0.0638855260         0.1938042228         0.0887886143         0.0004883590
       -3.0632071924         0.0719861548         0.1852562024         0.0887886143         0.0005150480
       -2.9744185781         0.0802719551         0.1740255944         0.0887886143         0.0005528481
       -2.8856299639         0.0947574739         0.1603332115         0.0887886143         0.0006088165
       -2.7968413496         0.1246559064         0.1447468913         0.0887886143         0.0006948410
       -2.7080527353         0.1805327023         0.1280934558         0.0887886143         0.0008302994
       -2.6192641211         0.2715632226         0.1113076951         0.0887886143         0.0010465754
       -2.5304755068         0.4025614828         0.0952654272         0.0887886143         0.0013939661
       -2.4416868925         0.5715917558         0.0806511001         0.0887886143         0.0019497824
       -2.3528982782         0.7688977597         0.0678914691         0.0887886143         0.0028214356
       -2.2641096640         0.9775955298         0.0571580483         0.0887886143         0.0041289939
       -2.1753210497         1.1761474802         0.0484181642         0.0887886143         0.0059448833
       -2.0865324354         1.3421800701         0.0415061364         0.0887886143         0.0081874070
       -1.9977438211         1.4568492880         0.0361908504         0.0887886143         0.0105307696
       -1.9089552069         1.5087949894         0.0322266261         0.0887886143         0.0124567225
       -1.8201665926         1.4968019749         0.0293841594         0.0887886143         0.0134988527
       -1.7313779783         1.4305818653         0.0274642936         0.0887886143         0.0135170733
       -1.6425893641         1.3295253393         0.0262995206         0.0887886143         0.0127589513
       -1.5538007498         1.2197331742         0.0257479464         0.0887886143         0.0116771829
       -1.4650121355         1.1299979995         0.0256835162         0.0887886143         0.0107017477
       -1.3762235212         1.0875883145         0.0259855512         0.0887886143         0.0101381558
       -1.2874349070         1.1146476285         0.0265303653         0.0887886143         0.0102023303
       -1.1986462927         1.2257911761         0.0271876170         0.0887886143         0.0111260368
       -1.1098576784         1.4271376991         0.0278234985         0.0887886143         0.0132966912
       -1.0210690641         1.7166571090         0.0283112677         0.0887886143         0.0174555158
       -0.9322804499         2.0854439539         0.0285470313         0.0887886143         0.0250318613
       -0.8434918356         2.5194056917         0.0284660202         0.0887886143         0.0387431145
       -0.7547032213         3.0008983106         0.0280534482         0.0887886143         0.0636274648
       -0.6659146070         3.5100139319         0.0273455229         0.0887886143         0.1086052309
       -0.5771259928         4.0254542105         0.0264198840         0.0887886143         0.1882170395
       -0.4883373785         4.5251273406         0.0253787755         0.0887886143         0.3229419500
       -0.3995487642         4.9867189692         0.0243304702         0.0887886143         0.5344552195
       -0.3107601500         5.3884781905         0.0233739953         0.0887886143         0.8314012714
       -0.2219715357         5.7103425471         0.0225898181         0.0887886143         1.1869018808
       -0.1331829214         5.9353507852         0.0220364190         0.0887886143         1.5237242016
       -0.0443943071         6.0511270328         0.0217508549         0.0887886143         1.7332134100
        0.0443943071         6.0511270328         0.0217508549         0.0887886143         1.7332134100
        0.1331829214         5.9353507852         0.0220364190         0.0887886143         1.5237242016
        0.2219715357         5.7103425471         0.0225898181         0.0887886143         1.1869018808
        0.3107601500         5.3884781905         0.0233739953         0.0887886143         0.8314012714
        0.3995487642         4.9867189692         0.0243304702         0.0887886143         0.5344552195
        0.4883373785         4.5251273406         0.0253787755         0.0887886143         0.3229419500
        0.5771259928         4.0254542105         0.0264198840         0.0887886143         0.1882170395
        0.6659146070         3.5100139319         0.0273455229         0.0887886143         0.1086052309
        0.7547032213         3.0008983106         0.0280534482         0.0887886143         0.0636274648
        0.8434918356         2.5194056917         0.0284660202         0.0887886143         0.0387431145
        0.9322804499         2.0854439539         0.0285470313         0.0887886143         0.0250318613
        1.0210690641         1.7166571090         0.0283112677         0.0887886143         0.0174555158
        1.1098576784         1.4271376991         0.0278234985         0.0887886143         0.0132966912
        1.1986462927         1.2257911761         0.0271876170         0.0887886143         0.0111260368
        1.2874349070         1.1146476285         0.0265303653         0.0887886143         0.0102023303
        1.3762235212         1.0875883145         0.0259855512         0.0887886143         0.0101381558
        1.4650121355         1.1299979995         0.0256835162         0.0887886143         0.0107017477
        1.5538007498         1.2197331742         0.0257479464         0.0887886143         0.0116771829
        1.6425893641         1.3295253393         0.0262995206         0.0887886143         0.0127589513
        1.7313779783         1.4305818653         0.0274642936         0.0887886143         0.0135170733
        1.8201665926         1.4968019749         0.0293841594         0.0887886143         0.0134988527
        1.9089552069         1.5087949894         0.0322266261         0.0887886143         0.0124567225
        1.9977438211         1.4568492880         0.0361908504         0.0887886143         0.0105307696
        2.0865324354         1.3421800701         0.0415061364         0.0887886143         0.0081874070
        2.1753210497         1.1761474802         0.0484181642         0.0887886143         0.0059448833
        2.2641096640         0.9775955298         0.0571580483         0.0887886143         0.0041289939
        2.3528982782         0.7688977597         0.0678914691         0.0887886143         0.0028214356
        2.4416868925         0.5715917558         0.0806511001         0.0887886143         0.0019497824
        2.5304755068         0.4025614828         0.0952654272         0.0887886143         0.0013939661
        2.6192641211         0.2715632226         0.1113076951         0.0887886143         0.0010465754
        2.7080527353         0.1805327023         0.1280934558         0.0887886143         0.0008302994
        2.7968413496         0.1246559064         0.1447468913         0.0887886143         0.0006948410
        2.8856299639         0.0947574739         0.1603332115         0.0887886143         0.0006088165
        2.9744185781         0.0802719551         0.1740255944         0.0887886143         0.0005528481
        3.0632071924         0.0719861548         0.1852562024         0.0887886143         0.0005150480
        3.1519958067         0.0638855260         0.1938042228         0.0887886143         0.0004883590
        3.2407844210         0.0537516182         0.1997987525         0.0887886143         0.0004689306
        3.3295730352         0.0425426824         0.2036465211         0.0887886143         0.0004549423
        3.4183616495         0.0329316710         0.2059170524         0.0887886143         0.0004456224
        3.5071502638         0.0275791251         0.2072225331         0.0887886143         0.0004404512
        3.5959388781         0.0277325649         0.2081195405         0.0887886143         0.0004386201
        3.6847274923         0.0325775621         0.2090442606         0.0887886143         0.0004388007
        3.7735161066         0.0394811596         0.2102802447         0.0887886143         0.0004392434
        3.8623047209         0.0449610359         0.2119516639         0.0887886143         0.0004381742
        3.9510933352         0.0459814805         0.2140346519         0.0887886143         0.0004343529
        4.0398819494         0.0410896745         0.2163818293         0.0887886143         0.0004275447
        4.1286705637         0.0309840831         0.2187576171         0.0887886143         0.0004186493
        4.2174591780         0.0183183868         0.2208826305         0.0887886143         0.0004094033
        4.3062477922         0.0068149429         0.2224838657         0.0887886143         0.0004018079
        4.3950364065        -0.0000000347         0.2233444682         0.0887886143         0.0003975411
